Time (s),GenTq

0.0000,1.234E+01
0.1000,1.231E+01
0.2000,1.227E+01
0.3000,1.223E+01
0.4000,1.219E+01
0.5000,1.215E+01
0.6000,1.212E+01
0.7000,1.209E+01
0.8000,1.206E+01
0.9000,1.205E+01
1.0000,1.203E+01
1.1000,1.201E+01
1.2000,1.199E+01
1.3000,1.196E+01
1.4000,1.193E+01
1.5000,1.190E+01
1.6000,1.187E+01
1.7000,1.184E+01
1.8000,1.182E+01
1.9000,1.180E+01
2.0000,1.179E+01
2.1000,1.177E+01
2.2000,1.174E+01
2.3000,1.171E+01
2.4000,1.167E+01
2.5000,1.164E+01
2.6000,1.159E+01
2.7000,1.155E+01
2.8000,1.151E+01
2.9000,1.147E+01
3.0000,1.143E+01
3.1000,1.139E+01
3.2000,1.135E+01
3.3000,1.132E+01
3.4000,1.129E+01
3.5000,1.126E+01
3.6000,1.124E+01
3.7000,1.122E+01
3.8000,1.120E+01
3.9000,1.118E+01
4.0000,1.116E+01
4.1000,1.113E+01
4.2000,1.110E+01
4.3000,1.107E+01
4.4000,1.105E+01
4.5000,1.103E+01
4.6000,1.101E+01
4.7000,1.100E+01
4.8000,1.098E+01
4.9000,1.096E+01
5.0000,1.093E+01
5.1000,1.090E+01
5.2000,1.087E+01
5.3000,1.084E+01
5.4000,1.080E+01
5.5000,1.076E+01
5.6000,1.072E+01
5.7000,1.069E+01
5.8000,1.065E+01
5.9000,1.061E+01
6.0000,1.058E+01
6.1000,1.054E+01
6.2000,1.051E+01
6.3000,1.048E+01
6.4000,1.045E+01
6.5000,1.043E+01
6.6000,1.041E+01
6.7000,1.039E+01
6.8000,1.037E+01
6.9000,1.035E+01
7.0000,1.032E+01
7.1000,1.030E+01
7.2000,1.027E+01
7.3000,1.024E+01
7.4000,1.022E+01
7.5000,1.020E+01
7.6000,1.018E+01
7.7000,1.016E+01
7.8000,1.013E+01
7.9000,1.011E+01
8.0000,1.008E+01
8.1000,1.005E+01
8.2000,1.002E+01
8.3000,9.987E+00
8.4000,9.951E+00
8.5000,9.914E+00
8.6000,9.882E+00
8.7000,9.854E+00
8.8000,9.828E+00
8.9000,9.803E+00
9.0000,9.778E+00
9.1000,9.752E+00
9.2000,9.725E+00
9.3000,9.697E+00
9.4000,9.671E+00
9.5000,9.649E+00
9.6000,9.628E+00
9.7000,9.608E+00
9.8000,9.588E+00
9.9000,9.570E+00
10.0000,9.552E+00
10.1000,9.535E+00
10.2000,9.518E+00
10.3000,9.501E+00
10.4000,9.486E+00
10.5000,9.473E+00
10.6000,9.464E+00
10.7000,9.454E+00
10.8000,9.441E+00
10.9000,9.423E+00
11.0000,9.402E+00
11.1000,9.379E+00
11.2000,9.353E+00
11.3000,9.324E+00
11.4000,9.294E+00
11.5000,9.264E+00
11.6000,9.234E+00
11.7000,9.207E+00
11.8000,9.183E+00
11.9000,9.161E+00
12.0000,9.142E+00
12.1000,9.125E+00
12.2000,9.107E+00
12.3000,9.089E+00
12.4000,9.074E+00
12.5000,9.062E+00
12.6000,9.050E+00
12.7000,9.039E+00
12.8000,9.030E+00
12.9000,9.026E+00
13.0000,9.023E+00
13.1000,9.019E+00
13.2000,9.017E+00
13.3000,9.015E+00
13.4000,9.012E+00
13.5000,9.008E+00
13.6000,9.008E+00
13.7000,9.009E+00
13.8000,9.009E+00
13.9000,9.006E+00
14.0000,9.000E+00
14.1000,8.993E+00
14.2000,8.983E+00
14.3000,8.970E+00
14.4000,8.954E+00
14.5000,8.939E+00
14.6000,8.924E+00
14.7000,8.911E+00
14.8000,8.899E+00
14.9000,8.889E+00
15.0000,8.883E+00
15.1000,8.881E+00
15.2000,8.879E+00
15.3000,8.874E+00
15.4000,8.866E+00
15.5000,8.859E+00
15.6000,8.856E+00
15.7000,8.854E+00
15.8000,8.853E+00
15.9000,8.855E+00
16.0000,8.860E+00
16.1000,8.869E+00
16.2000,8.880E+00
16.3000,8.893E+00
16.4000,8.903E+00
16.5000,8.912E+00
16.6000,8.920E+00
16.7000,8.930E+00
16.8000,8.945E+00
16.9000,8.962E+00
17.0000,8.973E+00
17.1000,8.980E+00
17.2000,8.983E+00
17.3000,8.983E+00
17.4000,8.984E+00
17.5000,8.985E+00
17.6000,8.988E+00
17.7000,8.990E+00
17.8000,8.993E+00
17.9000,8.996E+00
18.0000,9.000E+00
18.1000,9.005E+00
18.2000,9.012E+00
18.3000,9.020E+00
18.4000,9.029E+00
18.5000,9.041E+00
18.6000,9.055E+00
18.7000,9.071E+00
18.8000,9.088E+00
18.9000,9.107E+00
19.0000,9.127E+00
19.1000,9.147E+00
19.2000,9.169E+00
19.3000,9.191E+00
19.4000,9.214E+00
19.5000,9.234E+00
19.6000,9.253E+00
19.7000,9.270E+00
19.8000,9.290E+00
19.9000,9.314E+00
20.0000,9.337E+00
20.1000,9.357E+00
20.2000,9.377E+00
20.3000,9.395E+00
20.4000,9.410E+00
20.5000,9.422E+00
20.6000,9.432E+00
20.7000,9.442E+00
20.8000,9.457E+00
20.9000,9.476E+00
21.0000,9.495E+00
21.1000,9.512E+00
21.2000,9.524E+00
21.3000,9.536E+00
21.4000,9.550E+00
21.5000,9.566E+00
21.6000,9.587E+00
21.7000,9.610E+00
21.8000,9.636E+00
21.9000,9.663E+00
22.0000,9.695E+00
22.1000,9.730E+00
22.2000,9.769E+00
22.3000,9.811E+00
22.4000,9.852E+00
22.5000,9.892E+00
22.6000,9.931E+00
22.7000,9.969E+00
22.8000,1.001E+01
22.9000,1.005E+01
23.0000,1.008E+01
23.1000,1.012E+01
23.2000,1.015E+01
23.3000,1.019E+01
23.4000,1.021E+01
23.5000,1.023E+01
23.6000,1.024E+01
23.7000,1.026E+01
23.8000,1.028E+01
23.9000,1.030E+01
24.0000,1.033E+01
24.1000,1.035E+01
24.2000,1.037E+01
24.3000,1.039E+01
24.4000,1.041E+01
24.5000,1.043E+01
24.6000,1.045E+01
24.7000,1.047E+01
24.8000,1.049E+01
24.9000,1.052E+01
25.0000,1.056E+01
25.1000,1.060E+01
25.2000,1.065E+01
25.3000,1.069E+01
25.4000,1.074E+01
25.5000,1.077E+01
25.6000,1.081E+01
25.7000,1.085E+01
25.8000,1.088E+01
25.9000,1.091E+01
26.0000,1.095E+01
26.1000,1.098E+01
26.2000,1.101E+01
26.3000,1.102E+01
26.4000,1.104E+01
26.5000,1.105E+01
26.6000,1.107E+01
26.7000,1.109E+01
26.8000,1.111E+01
26.9000,1.113E+01
27.0000,1.116E+01
27.1000,1.119E+01
27.2000,1.122E+01
27.3000,1.123E+01
27.4000,1.125E+01
27.5000,1.127E+01
27.6000,1.129E+01
27.7000,1.130E+01
27.8000,1.133E+01
27.9000,1.135E+01
28.0000,1.137E+01
28.1000,1.139E+01
28.2000,1.142E+01
28.3000,1.144E+01
28.4000,1.146E+01
28.5000,1.148E+01
28.6000,1.151E+01
28.7000,1.155E+01
28.8000,1.160E+01
28.9000,1.163E+01
29.0000,1.165E+01
29.1000,1.166E+01
29.2000,1.167E+01
29.3000,1.168E+01
29.4000,1.168E+01
29.5000,1.168E+01
29.6000,1.169E+01
29.7000,1.169E+01
29.8000,1.170E+01
29.9000,1.171E+01
30.0000,1.172E+01
30.1000,1.172E+01
30.2000,1.173E+01
30.3000,1.173E+01
30.4000,1.174E+01
30.5000,1.175E+01
30.6000,1.176E+01
30.7000,1.178E+01
30.8000,1.178E+01
30.9000,1.179E+01
31.0000,1.180E+01
31.1000,1.181E+01
31.2000,1.183E+01
31.3000,1.185E+01
31.4000,1.188E+01
31.5000,1.190E+01
31.6000,1.192E+01
31.7000,1.194E+01
31.8000,1.195E+01
31.9000,1.195E+01
32.0000,1.194E+01
32.1000,1.194E+01
32.2000,1.193E+01
32.3000,1.192E+01
32.4000,1.192E+01
32.5000,1.193E+01
32.6000,1.193E+01
32.7000,1.193E+01
32.8000,1.193E+01
32.9000,1.192E+01
33.0000,1.191E+01
33.1000,1.190E+01
33.2000,1.190E+01
33.3000,1.190E+01
33.4000,1.191E+01
33.5000,1.191E+01
33.6000,1.192E+01
33.7000,1.193E+01
33.8000,1.194E+01
33.9000,1.196E+01
34.0000,1.197E+01
34.1000,1.199E+01
34.2000,1.201E+01
34.3000,1.202E+01
34.4000,1.203E+01
34.5000,1.204E+01
34.6000,1.204E+01
34.7000,1.203E+01
34.8000,1.202E+01
34.9000,1.201E+01
35.0000,1.200E+01
35.1000,1.199E+01
35.2000,1.198E+01
35.3000,1.198E+01
35.4000,1.198E+01
35.5000,1.197E+01
35.6000,1.195E+01
35.7000,1.194E+01
35.8000,1.193E+01
35.9000,1.192E+01
36.0000,1.191E+01
36.1000,1.191E+01
36.2000,1.191E+01
36.3000,1.190E+01
36.4000,1.190E+01
36.5000,1.191E+01
36.6000,1.192E+01
36.7000,1.194E+01
36.8000,1.196E+01
36.9000,1.199E+01
37.0000,1.201E+01
37.1000,1.202E+01
37.2000,1.204E+01
37.3000,1.204E+01
37.4000,1.205E+01
37.5000,1.204E+01
37.6000,1.204E+01
37.7000,1.203E+01
37.8000,1.202E+01
37.9000,1.200E+01
38.0000,1.200E+01
38.1000,1.199E+01
38.2000,1.197E+01
38.3000,1.196E+01
38.4000,1.195E+01
38.5000,1.194E+01
38.6000,1.193E+01
38.7000,1.193E+01
38.8000,1.194E+01
38.9000,1.194E+01
39.0000,1.195E+01
39.1000,1.195E+01
39.2000,1.196E+01
39.3000,1.197E+01
39.4000,1.199E+01
39.5000,1.200E+01
39.6000,1.201E+01
39.7000,1.202E+01
39.8000,1.203E+01
39.9000,1.205E+01
40.0000,1.205E+01
40.1000,1.205E+01
40.2000,1.205E+01
40.3000,1.204E+01
40.4000,1.203E+01
40.5000,1.201E+01
40.6000,1.199E+01
40.7000,1.198E+01
40.8000,1.196E+01
40.9000,1.195E+01
41.0000,1.193E+01
41.1000,1.192E+01
41.2000,1.191E+01
41.3000,1.191E+01
41.4000,1.192E+01
41.5000,1.193E+01
41.6000,1.194E+01
41.7000,1.195E+01
41.8000,1.195E+01
41.9000,1.196E+01
42.0000,1.197E+01
42.1000,1.198E+01
42.2000,1.199E+01
42.3000,1.200E+01
42.4000,1.200E+01
42.5000,1.201E+01
42.6000,1.202E+01
42.7000,1.204E+01
42.8000,1.205E+01
42.9000,1.206E+01
43.0000,1.205E+01
43.1000,1.205E+01
43.2000,1.205E+01
43.3000,1.204E+01
43.4000,1.204E+01
43.5000,1.203E+01
43.6000,1.202E+01
43.7000,1.202E+01
43.8000,1.202E+01
43.9000,1.203E+01
44.0000,1.203E+01
44.1000,1.204E+01
44.2000,1.205E+01
44.3000,1.206E+01
44.4000,1.208E+01
44.5000,1.209E+01
44.6000,1.211E+01
44.7000,1.213E+01
44.8000,1.214E+01
44.9000,1.216E+01
45.0000,1.217E+01
45.1000,1.218E+01
45.2000,1.219E+01
45.3000,1.221E+01
45.4000,1.222E+01
45.5000,1.224E+01
45.6000,1.225E+01
45.7000,1.226E+01
45.8000,1.227E+01
45.9000,1.228E+01
46.0000,1.228E+01
46.1000,1.228E+01
46.2000,1.229E+01
46.3000,1.230E+01
46.4000,1.230E+01
46.5000,1.231E+01
46.6000,1.232E+01
46.7000,1.233E+01
46.8000,1.234E+01
46.9000,1.236E+01
47.0000,1.237E+01
47.1000,1.239E+01
47.2000,1.241E+01
47.3000,1.243E+01
47.4000,1.245E+01
47.5000,1.247E+01
47.6000,1.249E+01
47.7000,1.251E+01
47.8000,1.252E+01
47.9000,1.254E+01
48.0000,1.255E+01
48.1000,1.257E+01
48.2000,1.258E+01
48.3000,1.259E+01
48.4000,1.260E+01
48.5000,1.261E+01
48.6000,1.262E+01
48.7000,1.262E+01
48.8000,1.263E+01
48.9000,1.263E+01
49.0000,1.263E+01
49.1000,1.263E+01
49.2000,1.264E+01
49.3000,1.264E+01
49.4000,1.265E+01
49.5000,1.267E+01
49.6000,1.269E+01
49.7000,1.270E+01
49.8000,1.271E+01
49.9000,1.273E+01
50.0000,1.275E+01
50.1000,1.277E+01
50.2000,1.279E+01
50.3000,1.282E+01
50.4000,1.284E+01
50.5000,1.287E+01
50.6000,1.289E+01
50.7000,1.291E+01
50.8000,1.293E+01
50.9000,1.295E+01
51.0000,1.296E+01
51.1000,1.298E+01
51.2000,1.299E+01
51.3000,1.300E+01
51.4000,1.300E+01
51.5000,1.300E+01
51.6000,1.300E+01
51.7000,1.299E+01
51.8000,1.300E+01
51.9000,1.301E+01
52.0000,1.302E+01
52.1000,1.304E+01
52.2000,1.305E+01
52.3000,1.305E+01
52.4000,1.306E+01
52.5000,1.307E+01
52.6000,1.309E+01
52.7000,1.311E+01
52.8000,1.315E+01
52.9000,1.319E+01
53.0000,1.322E+01
53.1000,1.325E+01
53.2000,1.327E+01
53.3000,1.329E+01
53.4000,1.331E+01
53.5000,1.334E+01
53.6000,1.336E+01
53.7000,1.338E+01
53.8000,1.340E+01
53.9000,1.342E+01
54.0000,1.342E+01
54.1000,1.343E+01
54.2000,1.343E+01
54.3000,1.343E+01
54.4000,1.344E+01
54.5000,1.345E+01
54.6000,1.347E+01
54.7000,1.349E+01
54.8000,1.350E+01
54.9000,1.350E+01
55.0000,1.351E+01
55.1000,1.353E+01
55.2000,1.355E+01
55.3000,1.357E+01
55.4000,1.360E+01
55.5000,1.362E+01
55.6000,1.365E+01
55.7000,1.368E+01
55.8000,1.370E+01
55.9000,1.372E+01
56.0000,1.374E+01
56.1000,1.375E+01
56.2000,1.375E+01
56.3000,1.375E+01
56.4000,1.375E+01
56.5000,1.375E+01
56.6000,1.375E+01
56.7000,1.375E+01
56.8000,1.376E+01
56.9000,1.377E+01
57.0000,1.379E+01
57.1000,1.380E+01
57.2000,1.381E+01
57.3000,1.381E+01
57.4000,1.382E+01
57.5000,1.382E+01
57.6000,1.383E+01
57.7000,1.383E+01
57.8000,1.384E+01
57.9000,1.385E+01
58.0000,1.386E+01
58.1000,1.387E+01
58.2000,1.389E+01
58.3000,1.390E+01
58.4000,1.391E+01
58.5000,1.392E+01
58.6000,1.392E+01
58.7000,1.392E+01
58.8000,1.393E+01
58.9000,1.394E+01
59.0000,1.396E+01
59.1000,1.397E+01
59.2000,1.398E+01
59.3000,1.399E+01
59.4000,1.400E+01
59.5000,1.401E+01
59.6000,1.402E+01
59.7000,1.402E+01
59.8000,1.401E+01
59.9000,1.400E+01
60.0000,1.400E+01
60.1000,1.399E+01
60.2000,1.399E+01
60.3000,1.398E+01
60.4000,1.398E+01
60.5000,1.398E+01
60.6000,1.398E+01
60.7000,1.398E+01
60.8000,1.399E+01
60.9000,1.400E+01
61.0000,1.402E+01
61.1000,1.403E+01
61.2000,1.403E+01
61.3000,1.404E+01
61.4000,1.405E+01
61.5000,1.406E+01
61.6000,1.406E+01
61.7000,1.408E+01
61.8000,1.408E+01
61.9000,1.408E+01
62.0000,1.408E+01
62.1000,1.407E+01
62.2000,1.406E+01
62.3000,1.404E+01
62.4000,1.401E+01
62.5000,1.399E+01
62.6000,1.397E+01
62.7000,1.395E+01
62.8000,1.393E+01
62.9000,1.392E+01
63.0000,1.390E+01
63.1000,1.389E+01
63.2000,1.389E+01
63.3000,1.389E+01
63.4000,1.389E+01
63.5000,1.390E+01
63.6000,1.390E+01
63.7000,1.391E+01
63.8000,1.392E+01
63.9000,1.393E+01
64.0000,1.394E+01
64.1000,1.394E+01
64.2000,1.393E+01
64.3000,1.391E+01
64.4000,1.389E+01
64.5000,1.386E+01
64.6000,1.384E+01
64.7000,1.381E+01
64.8000,1.378E+01
64.9000,1.374E+01
65.0000,1.371E+01
65.1000,1.369E+01
65.2000,1.366E+01
65.3000,1.365E+01
65.4000,1.364E+01
65.5000,1.364E+01
65.6000,1.364E+01
65.7000,1.364E+01
65.8000,1.364E+01
65.9000,1.363E+01
66.0000,1.363E+01
66.1000,1.364E+01
66.2000,1.364E+01
66.3000,1.365E+01
66.4000,1.365E+01
66.5000,1.364E+01
66.6000,1.362E+01
66.7000,1.360E+01
66.8000,1.358E+01
66.9000,1.355E+01
67.0000,1.352E+01
67.1000,1.349E+01
67.2000,1.346E+01
67.3000,1.343E+01
67.4000,1.340E+01
67.5000,1.337E+01
67.6000,1.333E+01
67.7000,1.330E+01
67.8000,1.327E+01
67.9000,1.326E+01
68.0000,1.324E+01
68.1000,1.323E+01
68.2000,1.323E+01
68.3000,1.322E+01
68.4000,1.322E+01
68.5000,1.322E+01
68.6000,1.321E+01
68.7000,1.321E+01
68.8000,1.321E+01
68.9000,1.320E+01
69.0000,1.318E+01
69.1000,1.316E+01
69.2000,1.314E+01
69.3000,1.312E+01
69.4000,1.309E+01
69.5000,1.307E+01
69.6000,1.304E+01
69.7000,1.301E+01
69.8000,1.299E+01
69.9000,1.296E+01
70.0000,1.293E+01
70.1000,1.290E+01
70.2000,1.286E+01
70.3000,1.283E+01
70.4000,1.280E+01
70.5000,1.278E+01
70.6000,1.275E+01
70.7000,1.273E+01
70.8000,1.272E+01
70.9000,1.270E+01
71.0000,1.269E+01
71.1000,1.268E+01
71.2000,1.267E+01
71.3000,1.266E+01
71.4000,1.265E+01
71.5000,1.263E+01
71.6000,1.262E+01
71.7000,1.260E+01
71.8000,1.258E+01
71.9000,1.256E+01
72.0000,1.254E+01
72.1000,1.251E+01
72.2000,1.248E+01
72.3000,1.246E+01
72.4000,1.243E+01
72.5000,1.241E+01
72.6000,1.238E+01
72.7000,1.235E+01
72.8000,1.232E+01
72.9000,1.229E+01
73.0000,1.226E+01
73.1000,1.223E+01
73.2000,1.221E+01
73.3000,1.219E+01
73.4000,1.218E+01
73.5000,1.216E+01
73.6000,1.214E+01
73.7000,1.212E+01
73.8000,1.211E+01
73.9000,1.210E+01
74.0000,1.209E+01
74.1000,1.209E+01
74.2000,1.208E+01
74.3000,1.207E+01
74.4000,1.205E+01
74.5000,1.203E+01
74.6000,1.202E+01
74.7000,1.201E+01
74.8000,1.199E+01
74.9000,1.198E+01
75.0000,1.196E+01
75.1000,1.195E+01
75.2000,1.193E+01
75.3000,1.191E+01
75.4000,1.189E+01
75.5000,1.187E+01
75.6000,1.184E+01
75.7000,1.182E+01
75.8000,1.180E+01
75.9000,1.178E+01
76.0000,1.177E+01
76.1000,1.176E+01
76.2000,1.175E+01
76.3000,1.174E+01
76.4000,1.174E+01
76.5000,1.174E+01
76.6000,1.174E+01
76.7000,1.173E+01
76.8000,1.173E+01
76.9000,1.172E+01
77.0000,1.170E+01
77.1000,1.168E+01
77.2000,1.167E+01
77.3000,1.165E+01
77.4000,1.164E+01
77.5000,1.162E+01
77.6000,1.161E+01
77.7000,1.160E+01
77.8000,1.159E+01
77.9000,1.157E+01
78.0000,1.156E+01
78.1000,1.154E+01
78.2000,1.152E+01
78.3000,1.149E+01
78.4000,1.147E+01
78.5000,1.145E+01
78.6000,1.143E+01
78.7000,1.141E+01
78.8000,1.139E+01
78.9000,1.138E+01
79.0000,1.137E+01
79.1000,1.137E+01
79.2000,1.137E+01
79.3000,1.138E+01
79.4000,1.139E+01
79.5000,1.140E+01
79.6000,1.140E+01
79.7000,1.139E+01
79.8000,1.139E+01
79.9000,1.138E+01
80.0000,1.137E+01
80.1000,1.137E+01
80.2000,1.136E+01
80.3000,1.135E+01
80.4000,1.134E+01
80.5000,1.133E+01
80.6000,1.131E+01
80.7000,1.130E+01
80.8000,1.128E+01
80.9000,1.125E+01
81.0000,1.123E+01
81.1000,1.121E+01
81.2000,1.118E+01
81.3000,1.116E+01
81.4000,1.113E+01
81.5000,1.110E+01
81.6000,1.108E+01
81.7000,1.107E+01
81.8000,1.106E+01
81.9000,1.105E+01
82.0000,1.105E+01
82.1000,1.105E+01
82.2000,1.106E+01
82.3000,1.105E+01
82.4000,1.105E+01
82.5000,1.104E+01
82.6000,1.103E+01
82.7000,1.102E+01
82.8000,1.101E+01
82.9000,1.100E+01
83.0000,1.099E+01
83.1000,1.098E+01
83.2000,1.097E+01
83.3000,1.095E+01
83.4000,1.092E+01
83.5000,1.090E+01
83.6000,1.088E+01
83.7000,1.085E+01
83.8000,1.083E+01
83.9000,1.081E+01
84.0000,1.078E+01
84.1000,1.075E+01
84.2000,1.072E+01
84.3000,1.069E+01
84.4000,1.066E+01
84.5000,1.064E+01
84.6000,1.062E+01
84.7000,1.061E+01
84.8000,1.059E+01
84.9000,1.058E+01
85.0000,1.057E+01
85.1000,1.056E+01
85.2000,1.054E+01
85.3000,1.052E+01
85.4000,1.050E+01
85.5000,1.048E+01
85.6000,1.047E+01
85.7000,1.045E+01
85.8000,1.044E+01
85.9000,1.042E+01
86.0000,1.040E+01
86.1000,1.038E+01
86.2000,1.036E+01
86.3000,1.033E+01
86.4000,1.031E+01
86.5000,1.028E+01
86.6000,1.025E+01
86.7000,1.022E+01
86.8000,1.019E+01
86.9000,1.017E+01
87.0000,1.014E+01
87.1000,1.011E+01
87.2000,1.009E+01
87.3000,1.007E+01
87.4000,1.005E+01
87.5000,1.003E+01
87.6000,1.002E+01
87.7000,1.001E+01
87.8000,9.999E+00
87.9000,9.983E+00
88.0000,9.965E+00
88.1000,9.942E+00
88.2000,9.917E+00
88.3000,9.894E+00
88.4000,9.874E+00
88.5000,9.859E+00
88.6000,9.845E+00
88.7000,9.829E+00
88.8000,9.811E+00
88.9000,9.788E+00
89.0000,9.762E+00
89.1000,9.732E+00
89.2000,9.700E+00
89.3000,9.668E+00
89.4000,9.636E+00
89.5000,9.605E+00
89.6000,9.576E+00
89.7000,9.548E+00
89.8000,9.521E+00
89.9000,9.495E+00
90.0000,9.470E+00
90.1000,9.446E+00
90.2000,9.425E+00
90.3000,9.406E+00
90.4000,9.391E+00
90.5000,9.379E+00
90.6000,9.366E+00
90.7000,9.351E+00
90.8000,9.334E+00
90.9000,9.312E+00
91.0000,9.287E+00
91.1000,9.261E+00
91.2000,9.234E+00
91.3000,9.209E+00
91.4000,9.186E+00
91.5000,9.165E+00
91.6000,9.144E+00
91.7000,9.124E+00
91.8000,9.105E+00
91.9000,9.087E+00
92.0000,9.070E+00
92.1000,9.049E+00
92.2000,9.024E+00
92.3000,8.998E+00
92.4000,8.972E+00
92.5000,8.946E+00
92.6000,8.926E+00
92.7000,8.910E+00
92.8000,8.895E+00
92.9000,8.878E+00
93.0000,8.859E+00
93.1000,8.839E+00
93.2000,8.820E+00
93.3000,8.801E+00
93.4000,8.781E+00
93.5000,8.762E+00
93.6000,8.744E+00
93.7000,8.726E+00
93.8000,8.707E+00
93.9000,8.686E+00
94.0000,8.666E+00
94.1000,8.644E+00
94.2000,8.621E+00
94.3000,8.597E+00
94.4000,8.571E+00
94.5000,8.546E+00
94.6000,8.526E+00
94.7000,8.508E+00
94.8000,8.491E+00
94.9000,8.473E+00
95.0000,8.454E+00
95.1000,8.435E+00
95.2000,8.415E+00
95.3000,8.392E+00
95.4000,8.369E+00
95.5000,8.347E+00
95.6000,8.327E+00
95.7000,8.309E+00
95.8000,8.293E+00
95.9000,8.279E+00
96.0000,8.264E+00
96.1000,8.247E+00
96.2000,8.230E+00
96.3000,8.215E+00
96.4000,8.201E+00
96.5000,8.186E+00
96.6000,8.169E+00
96.7000,8.153E+00
96.8000,8.139E+00
96.9000,8.126E+00
97.0000,8.113E+00
97.1000,8.100E+00
97.2000,8.086E+00
97.3000,8.071E+00
97.4000,8.059E+00
97.5000,8.045E+00
97.6000,8.030E+00
97.7000,8.015E+00
97.8000,8.000E+00
97.9000,7.984E+00
98.0000,7.964E+00
98.1000,7.943E+00
98.2000,7.921E+00
98.3000,7.899E+00
98.4000,7.881E+00
98.5000,7.865E+00
98.6000,7.850E+00
98.7000,7.836E+00
98.8000,7.822E+00
98.9000,7.808E+00
99.0000,7.794E+00
99.1000,7.780E+00
99.2000,7.766E+00
99.3000,7.751E+00
99.4000,7.735E+00
99.5000,7.719E+00
99.6000,7.702E+00
99.7000,7.687E+00
99.8000,7.671E+00
99.9000,7.654E+00
100.0000,7.635E+00
100.1000,7.619E+00
100.2000,7.604E+00
100.3000,7.589E+00
100.4000,7.574E+00
100.5000,7.561E+00
100.6000,7.548E+00
100.7000,7.537E+00
100.8000,7.525E+00
100.9000,7.511E+00
101.0000,7.496E+00
101.1000,7.480E+00
101.2000,7.466E+00
101.3000,7.453E+00
101.4000,7.439E+00
101.5000,7.425E+00
101.6000,7.412E+00
101.7000,7.403E+00
101.8000,7.396E+00
101.9000,7.390E+00
102.0000,7.387E+00
102.1000,7.383E+00
102.2000,7.379E+00
102.3000,7.374E+00
102.4000,7.367E+00
102.5000,7.358E+00
102.6000,7.348E+00
102.7000,7.335E+00
102.8000,7.320E+00
102.9000,7.305E+00
103.0000,7.291E+00
103.1000,7.280E+00
103.2000,7.270E+00
103.3000,7.259E+00
103.4000,7.248E+00
103.5000,7.237E+00
103.6000,7.225E+00
103.7000,7.214E+00
103.8000,7.201E+00
103.9000,7.188E+00
104.0000,7.175E+00
104.1000,7.161E+00
104.2000,7.148E+00
104.3000,7.135E+00
104.4000,7.120E+00
104.5000,7.105E+00
104.6000,7.090E+00
104.7000,7.078E+00
104.8000,7.067E+00
104.9000,7.056E+00
105.0000,7.046E+00
105.1000,7.039E+00
105.2000,7.035E+00
105.3000,7.032E+00
105.4000,7.029E+00
105.5000,7.025E+00
105.6000,7.021E+00
105.7000,7.019E+00
105.8000,7.017E+00
105.9000,7.016E+00
106.0000,7.015E+00
106.1000,7.014E+00
106.2000,7.011E+00
106.3000,7.007E+00
106.4000,7.004E+00
106.5000,6.999E+00
106.6000,6.992E+00
106.7000,6.983E+00
106.8000,6.974E+00
106.9000,6.965E+00
107.0000,6.955E+00
107.1000,6.945E+00
107.2000,6.935E+00
107.3000,6.926E+00
107.4000,6.916E+00
107.5000,6.906E+00
107.6000,6.895E+00
107.7000,6.885E+00
107.8000,6.876E+00
107.9000,6.868E+00
108.0000,6.861E+00
108.1000,6.856E+00
108.2000,6.851E+00
108.3000,6.848E+00
108.4000,6.844E+00
108.5000,6.840E+00
108.6000,6.838E+00
108.7000,6.837E+00
108.8000,6.838E+00
108.9000,6.839E+00
109.0000,6.841E+00
109.1000,6.842E+00
109.2000,6.843E+00
109.3000,6.845E+00
109.4000,6.847E+00
109.5000,6.848E+00
109.6000,6.849E+00
109.7000,6.849E+00
109.8000,6.849E+00
109.9000,6.848E+00
110.0000,6.846E+00
110.1000,6.842E+00
110.2000,6.836E+00
110.3000,6.829E+00
110.4000,6.824E+00
110.5000,6.820E+00
110.6000,6.815E+00
110.7000,6.812E+00
110.8000,6.809E+00
